#!/bin/bash
gmt gmtset PS_MEDIA letter
gmt gmtset PROJ_LENGTH_UNIT cm
gmt gmtset PS_PAGE_ORIENTATION portrait
psfile=jsa4.1_example_tt1_summary.ps
projection=-JX12/16
region=-R0/180/0/1500
gmt psbasemap $region $projection -Bxa30f10+l'Epicentral Distance (deg)' -Bya200f100+l'Travel Time (s)' -BWeSn+t'Summary Travel Times jsa4.1_example' -K > $psfile
gmt psxy -: -R $projection -Wthick,red -K -O << END >> $psfile
   323.910    25.000
   328.453    25.500
   332.985    26.000
   337.506    26.500
   342.014    27.000
   346.506    27.500
   350.978    28.000
   355.435    28.500
   359.880    29.000
   364.316    29.500
   368.745    30.000
   373.166    30.500
   377.579    31.000
   381.984    31.500
   386.382    32.000
   390.769    32.500
   395.146    33.000
   399.511    33.500
   403.862    34.000
   408.197    34.500
   412.518    35.000
   416.823    35.500
   421.113    36.000
   425.388    36.500
   429.648    37.000
   433.892    37.500
   438.120    38.000
   442.332    38.500
   446.527    39.000
   450.706    39.500
   454.867    40.000
   459.011    40.500
   463.139    41.000
   467.249    41.500
   471.342    42.000
   475.418    42.500
   479.477    43.000
   483.517    43.500
   487.541    44.000
   491.546    44.500
   495.534    45.000
   499.503    45.500
   503.455    46.000
   507.389    46.500
   511.304    47.000
   515.202    47.500
   519.081    48.000
   522.943    48.500
   526.786    49.000
   530.610    49.500
   534.417    50.000
   538.205    50.500
   541.975    51.000
   545.727    51.500
   549.461    52.000
   553.177    52.500
   556.875    53.000
   560.555    53.500
   564.217    54.000
   567.861    54.500
   571.486    55.000
   575.093    55.500
   578.681    56.000
   582.251    56.500
   585.803    57.000
   589.336    57.500
   592.851    58.000
   596.349    58.500
   599.828    59.000
   603.289    59.500
   606.731    60.000
   610.155    60.500
   613.561    61.000
   616.948    61.500
   620.317    62.000
   623.668    62.500
   627.001    63.000
   630.316    63.500
   633.613    64.000
   636.892    64.500
   640.154    65.000
   643.397    65.500
   646.622    66.000
   649.830    66.500
   653.019    67.000
   656.190    67.500
   659.343    68.000
   662.478    68.500
   665.594    69.000
   668.693    69.500
   671.773    70.000
   674.835    70.500
   677.879    71.000
   680.905    71.500
   683.913    72.000
   686.903    72.500
   689.874    73.000
   692.826    73.500
   695.760    74.000
   698.675    74.500
   701.572    75.000
   704.450    75.500
   707.309    76.000
   710.151    76.500
   712.974    77.000
   715.779    77.500
   718.566    78.000
   721.335    78.500
   724.086    79.000
   726.819    79.500
   729.532    80.000
   732.227    80.500
   734.903    81.000
   737.559    81.500
   740.196    82.000
   742.814    82.500
   745.413    83.000
   747.994    83.500
   750.555    84.000
   753.096    84.500
   755.616    85.000
   758.117    85.500
   760.599    86.000
   763.063    86.500
   765.509    87.000
   767.932    87.500
   770.321    88.000
   772.688    88.500
   775.042    89.000
   777.388    89.500
   779.726    90.000
   782.057    90.500
   784.382    91.000
   786.701    91.500
   789.016    92.000
   791.326    92.500
   793.634    93.000
   795.938    93.500
   798.238    94.000
   800.533    94.500
   802.824    95.000
   805.108    95.500
   807.386    96.000
   809.658    96.500
   811.923    97.000
   814.182    97.500
   816.433    98.000
   818.677    98.500
   820.914    99.000
   823.143    99.500
END
gmt psxy -: -R $projection -Wthick,red -K -O << END >> $psfile
  1122.159   115.500
  1123.121   116.000
  1124.084   116.500
  1125.046   117.000
  1126.008   117.500
  1126.970   118.000
  1127.931   118.500
  1128.893   119.000
  1129.854   119.500
  1130.816   120.000
  1131.777   120.500
  1132.738   121.000
  1133.698   121.500
  1134.658   122.000
  1135.618   122.500
  1136.578   123.000
  1137.537   123.500
  1138.496   124.000
  1139.454   124.500
  1140.411   125.000
  1141.369   125.500
  1142.325   126.000
  1143.281   126.500
  1144.236   127.000
  1145.191   127.500
  1146.144   128.000
  1147.097   128.500
  1148.049   129.000
  1149.000   129.500
  1149.950   130.000
  1150.898   130.500
  1151.846   131.000
  1152.792   131.500
  1153.737   132.000
  1154.681   132.500
  1155.623   133.000
  1156.564   133.500
  1157.503   134.000
  1158.440   134.500
  1159.375   135.000
  1160.308   135.500
  1161.240   136.000
  1162.168   136.500
  1163.095   137.000
  1164.019   137.500
  1164.940   138.000
  1165.859   138.500
  1166.774   139.000
  1167.687   139.500
  1168.597   140.000
  1169.503   140.500
  1170.405   141.000
  1171.304   141.500
  1172.199   142.000
  1173.089   142.500
  1173.975   143.000
  1174.856   143.500
  1175.733   144.000
  1176.604   144.500
  1177.469   145.000
  1178.329   145.500
  1179.183   146.000
  1180.031   146.500
  1180.872   147.000
  1181.706   147.500
  1182.533   148.000
  1183.353   148.500
  1184.164   149.000
  1184.967   149.500
  1185.760   150.000
  1186.543   150.500
  1187.317   151.000
  1188.080   151.500
  1188.834   152.000
  1189.577   152.500
  1190.311   153.000
  1191.034   153.500
  1191.746   154.000
  1192.448   154.500
  1193.138   155.000
  1193.817   155.500
  1194.484   156.000
  1195.140   156.500
  1195.783   157.000
  1196.415   157.500
  1197.034   158.000
  1197.641   158.500
  1198.235   159.000
  1198.816   159.500
  1199.385   160.000
  1199.940   160.500
  1200.483   161.000
  1201.012   161.500
  1201.528   162.000
  1202.031   162.500
  1202.521   163.000
  1202.997   163.500
  1203.459   164.000
  1203.907   164.500
  1204.342   165.000
  1204.763   165.500
  1205.170   166.000
  1205.563   166.500
  1205.942   167.000
  1206.307   167.500
  1206.658   168.000
  1206.995   168.500
  1207.318   169.000
  1207.627   169.500
  1207.921   170.000
  1208.202   170.500
  1208.468   171.000
  1208.719   171.500
  1208.957   172.000
  1209.180   172.500
  1209.389   173.000
  1209.584   173.500
  1209.764   174.000
  1209.930   174.500
  1210.081   175.000
  1210.219   175.500
  1210.341   176.000
  1210.449   176.500
  1210.543   177.000
  1210.623   177.500
  1210.688   178.000
  1210.738   178.500
  1210.774   179.000
  1210.796   179.500
  1210.803   180.000
END
gmt psxy -: -R $projection -Wthick,red -K -O << END >> $psfile
   993.102     0.500
   993.110     1.000
   993.124     1.500
   993.144     2.000
   993.169     2.500
   993.200     3.000
   993.236     3.500
   993.278     4.000
   993.326     4.500
   993.379     5.000
   993.437     5.500
   993.502     6.000
   993.572     6.500
   993.647     7.000
   993.728     7.500
   993.815     8.000
   993.907     8.500
   994.005     9.000
   994.108     9.500
   994.217    10.000
   994.331    10.500
   994.451    11.000
   994.577    11.500
   994.708    12.000
   994.845    12.500
   994.987    13.000
   995.135    13.500
   995.288    14.000
   995.446    14.500
   995.611    15.000
   995.781    15.500
   995.956    16.000
   996.137    16.500
   996.323    17.000
   996.515    17.500
   996.712    18.000
   996.914    18.500
   997.123    19.000
   997.336    19.500
   997.555    20.000
   997.780    20.500
   998.010    21.000
   998.245    21.500
   998.486    22.000
   998.732    22.500
   998.984    23.000
   999.241    23.500
   999.503    24.000
   999.771    24.500
  1000.044    25.000
  1000.322    25.500
  1000.606    26.000
  1000.895    26.500
  1001.190    27.000
  1001.490    27.500
  1001.795    28.000
  1002.105    28.500
  1002.421    29.000
  1002.742    29.500
  1003.068    30.000
  1003.399    30.500
  1003.736    31.000
  1004.078    31.500
  1004.425    32.000
  1004.778    32.500
  1005.135    33.000
  1005.498    33.500
  1005.866    34.000
  1006.239    34.500
  1006.617    35.000
  1007.001    35.500
  1007.389    36.000
  1007.783    36.500
  1008.182    37.000
  1008.585    37.500
  1008.994    38.000
  1009.408    38.500
  1009.827    39.000
  1010.251    39.500
  1010.680    40.000
  1011.114    40.500
  1011.553    41.000
  1011.997    41.500
  1012.446    42.000
  1012.900    42.500
  1013.358    43.000
  1013.822    43.500
  1014.291    44.000
  1014.764    44.500
  1015.242    45.000
  1015.726    45.500
  1016.214    46.000
  1016.706    46.500
  1017.204    47.000
  1017.706    47.500
  1018.214    48.000
  1018.726    48.500
  1019.242    49.000
  1019.764    49.500
  1020.290    50.000
  1020.820    50.500
  1021.356    51.000
  1021.896    51.500
  1022.441    52.000
  1022.990    52.500
  1023.544    53.000
  1024.102    53.500
  1024.666    54.000
  1025.233    54.500
  1025.805    55.000
  1026.382    55.500
  1026.963    56.000
  1027.549    56.500
  1028.139    57.000
  1028.733    57.500
  1029.332    58.000
  1029.935    58.500
  1030.543    59.000
  1031.155    59.500
  1031.772    60.000
  1032.392    60.500
  1033.017    61.000
  1033.647    61.500
  1034.280    62.000
  1034.918    62.500
  1035.560    63.000
  1036.206    63.500
  1036.857    64.000
  1037.511    64.500
  1038.170    65.000
  1038.833    65.500
  1039.500    66.000
  1040.171    66.500
  1040.846    67.000
  1041.525    67.500
  1042.208    68.000
  1042.896    68.500
  1043.587    69.000
  1044.282    69.500
  1044.981    70.000
  1045.684    70.500
  1046.391    71.000
  1047.101    71.500
  1047.816    72.000
  1048.534    72.500
  1049.256    73.000
  1049.982    73.500
  1050.712    74.000
  1051.446    74.500
  1052.183    75.000
  1052.924    75.500
  1053.668    76.000
  1054.417    76.500
  1055.169    77.000
  1055.924    77.500
  1056.683    78.000
  1057.446    78.500
  1058.212    79.000
  1058.982    79.500
  1059.755    80.000
  1060.532    80.500
  1061.312    81.000
  1062.096    81.500
  1062.883    82.000
  1063.673    82.500
  1064.467    83.000
  1065.264    83.500
  1066.064    84.000
  1066.868    84.500
  1067.675    85.000
  1068.485    85.500
  1069.299    86.000
  1070.115    86.500
  1070.935    87.000
  1071.758    87.500
  1072.585    88.000
  1073.414    88.500
  1074.246    89.000
  1075.082    89.500
  1075.920    90.000
  1076.762    90.500
  1077.606    91.000
  1078.454    91.500
  1079.304    92.000
  1080.157    92.500
  1081.014    93.000
  1081.873    93.500
  1082.735    94.000
  1083.599    94.500
  1084.467    95.000
  1085.337    95.500
  1086.211    96.000
  1087.086    96.500
  1087.965    97.000
  1088.846    97.500
  1089.730    98.000
  1090.617    98.500
  1091.506    99.000
  1092.398    99.500
  1093.292   100.000
  1094.189   100.500
  1095.088   101.000
  1095.990   101.500
  1096.895   102.000
  1097.802   102.500
  1098.711   103.000
  1099.622   103.500
  1100.536   104.000
  1101.453   104.500
  1102.372   105.000
  1103.293   105.500
  1104.216   106.000
  1105.141   106.500
  1106.069   107.000
  1106.999   107.500
  1107.932   108.000
  1108.866   108.500
  1109.802   109.000
  1110.741   109.500
  1111.682   110.000
  1112.624   110.500
  1113.569   111.000
  1114.516   111.500
  1115.464   112.000
  1116.415   112.500
  1117.368   113.000
  1118.322   113.500
  1119.279   114.000
  1120.237   114.500
  1121.198   115.000
  1122.159   115.500
  1123.123   116.000
  1124.089   116.500
  1125.056   117.000
  1126.025   117.500
  1126.996   118.000
  1127.969   118.500
  1128.943   119.000
  1129.918   119.500
  1130.896   120.000
  1131.875   120.500
  1132.855   121.000
  1133.837   121.500
  1134.821   122.000
  1135.806   122.500
  1136.792   123.000
  1137.780   123.500
  1138.769   124.000
  1139.760   124.500
  1140.752   125.000
  1141.746   125.500
  1142.740   126.000
  1143.736   126.500
  1144.734   127.000
  1145.732   127.500
  1146.732   128.000
  1147.733   128.500
  1148.735   129.000
  1149.738   129.500
  1150.743   130.000
  1151.749   130.500
  1152.755   131.000
  1153.763   131.500
  1154.772   132.000
  1155.781   132.500
  1156.792   133.000
  1157.804   133.500
  1158.817   134.000
  1159.830   134.500
  1160.845   135.000
  1161.860   135.500
  1162.876   136.000
  1163.894   136.500
  1164.911   137.000
  1165.930   137.500
  1166.950   138.000
  1167.970   138.500
  1168.991   139.000
  1170.013   139.500
  1171.035   140.000
  1172.058   140.500
  1173.081   141.000
  1174.106   141.500
  1175.130   142.000
  1176.156   142.500
  1177.182   143.000
  1178.208   143.500
  1179.235   144.000
  1180.262   144.500
  1181.290   145.000
  1182.319   145.500
  1183.347   146.000
  1184.377   146.500
  1185.406   147.000
  1186.436   147.500
  1187.466   148.000
  1188.497   148.500
  1189.527   149.000
  1190.558   149.500
  1191.590   150.000
  1192.621   150.500
  1193.653   151.000
  1194.685   151.500
  1195.717   152.000
  1196.749   152.500
  1197.781   153.000
  1198.814   153.500
  1199.846   154.000
  1200.879   154.500
  1201.911   155.000
END
gmt psxy -: -R $projection -Wthick,red -K -O << END >> $psfile
  1176.779   145.000
  1178.602   145.500
  1180.482   146.000
  1182.399   146.500
  1184.344   147.000
  1186.312   147.500
  1188.300   148.000
  1190.306   148.500
  1192.327   149.000
  1194.362   149.500
  1196.410   150.000
  1198.470   150.500
  1200.539   151.000
  1202.619   151.500
  1204.708   152.000
  1206.805   152.500
  1208.909   153.000
  1211.021   153.500
  1213.141   154.000
  1215.266   154.500
  1217.398   155.000
  1219.535   155.500
  1221.678   156.000
  1223.826   156.500
  1225.978   157.000
  1228.135   157.500
  1230.296   158.000
  1232.461   158.500
  1234.631   159.000
  1236.804   159.500
  1238.980   160.000
  1241.159   160.500
  1243.342   161.000
  1245.527   161.500
  1247.716   162.000
  1249.906   162.500
  1252.099   163.000
  1254.295   163.500
  1256.492   164.000
  1258.692   164.500
  1260.893   165.000
  1263.097   165.500
  1265.302   166.000
  1267.509   166.500
  1269.717   167.000
  1271.926   167.500
  1274.137   168.000
  1276.349   168.500
  1278.563   169.000
  1280.777   169.500
  1282.993   170.000
  1285.209   170.500
  1287.427   171.000
  1289.644   171.500
  1291.863   172.000
  1294.083   172.500
  1296.302   173.000
  1298.523   173.500
  1300.744   174.000
  1302.965   174.500
  1305.187   175.000
  1307.409   175.500
  1309.632   176.000
  1311.854   176.500
  1314.077   177.000
  1316.300   177.500
  1318.522   178.000
END
gmt psxy -: -R $projection -Wthick,red -K -O << END >> $psfile
  1176.777   145.000
  1178.403   145.500
  1179.950   146.000
  1181.440   146.500
  1182.880   147.000
  1184.275   147.500
  1185.626   148.000
  1186.939   148.500
  1188.216   149.000
  1189.465   149.500
  1190.688   150.000
  1191.889   150.500
  1193.069   151.000
  1194.229   151.500
  1195.371   152.000
  1196.496   152.500
  1197.605   153.000
  1198.700   153.500
  1199.781   154.000
  1200.849   154.500
  1201.904   155.000
END
gmt psxy -: -R $projection -Wthick,red -K -O << END >> $psfile
   509.977     0.500
   510.013     1.000
   510.073     1.500
   510.157     2.000
   510.265     2.500
   510.397     3.000
   510.553     3.500
   510.733     4.000
   510.937     4.500
   511.164     5.000
   511.415     5.500
   511.690     6.000
   511.989     6.500
   512.311     7.000
   512.657     7.500
   513.027     8.000
   513.420     8.500
   513.836     9.000
   514.275     9.500
   514.738    10.000
   515.224    10.500
   515.732    11.000
   516.264    11.500
   516.818    12.000
   517.396    12.500
   517.995    13.000
   518.618    13.500
   519.262    14.000
   519.929    14.500
   520.618    15.000
   521.330    15.500
   522.063    16.000
   522.817    16.500
   523.594    17.000
   524.392    17.500
   525.211    18.000
   526.051    18.500
   526.913    19.000
   527.795    19.500
   528.698    20.000
   529.622    20.500
   530.567    21.000
   531.531    21.500
   532.516    22.000
   533.521    22.500
   534.545    23.000
   535.589    23.500
   536.653    24.000
   537.736    24.500
   538.838    25.000
   539.959    25.500
   541.099    26.000
   542.258    26.500
   543.435    27.000
   544.630    27.500
   545.843    28.000
   547.074    28.500
   548.323    29.000
   549.590    29.500
   550.874    30.000
   552.175    30.500
   553.493    31.000
   554.828    31.500
   556.179    32.000
   557.547    32.500
   558.931    33.000
   560.332    33.500
   561.748    34.000
   563.180    34.500
   564.627    35.000
   566.090    35.500
   567.567    36.000
   569.060    36.500
   570.568    37.000
   572.090    37.500
   573.626    38.000
   575.177    38.500
   576.742    39.000
   578.320    39.500
   579.912    40.000
   581.518    40.500
   583.137    41.000
   584.769    41.500
   586.414    42.000
   588.072    42.500
   589.742    43.000
   591.424    43.500
   593.119    44.000
   594.826    44.500
   596.545    45.000
   598.275    45.500
   600.017    46.000
   601.770    46.500
   603.534    47.000
   605.310    47.500
   607.096    48.000
   608.892    48.500
   610.700    49.000
   612.517    49.500
   614.345    50.000
   616.182    50.500
   618.029    51.000
   619.886    51.500
   621.753    52.000
   623.628    52.500
   625.513    53.000
   627.407    53.500
   629.310    54.000
   631.221    54.500
   633.141    55.000
   635.069    55.500
   637.006    56.000
   638.950    56.500
   640.902    57.000
   642.863    57.500
   644.830    58.000
   646.806    58.500
   648.788    59.000
   650.778    59.500
   652.775    60.000
   654.779    60.500
   656.789    61.000
   658.806    61.500
   660.830    62.000
   662.860    62.500
   664.896    63.000
   666.939    63.500
   668.987    64.000
   671.041    64.500
   673.101    65.000
   675.166    65.500
   677.237    66.000
   679.314    66.500
   681.395    67.000
   683.482    67.500
   685.573    68.000
   687.670    68.500
   689.771    69.000
   691.876    69.500
   693.987    70.000
   696.101    70.500
   698.220    71.000
   700.344    71.500
   702.471    72.000
   704.602    72.500
   706.737    73.000
   708.876    73.500
   711.018    74.000
   713.164    74.500
   715.314    75.000
   717.467    75.500
   719.623    76.000
   721.782    76.500
   723.945    77.000
   726.110    77.500
   728.278    78.000
   730.449    78.500
   732.623    79.000
   734.799    79.500
   736.978    80.000
   739.160    80.500
   741.343    81.000
   743.529    81.500
   745.717    82.000
   747.908    82.500
   750.100    83.000
   752.294    83.500
   754.490    84.000
   756.688    84.500
   758.888    85.000
   761.090    85.500
   763.293    86.000
   765.497    86.500
   767.703    87.000
   769.910    87.500
   772.119    88.000
   774.329    88.500
   776.540    89.000
   778.752    89.500
   780.965    90.000
   783.180    90.500
   785.395    91.000
   787.611    91.500
   789.828    92.000
   792.045    92.500
   794.264    93.000
   796.483    93.500
   798.702    94.000
   800.923    94.500
   803.143    95.000
   805.364    95.500
   807.586    96.000
   809.808    96.500
   812.030    97.000
   814.252    97.500
   816.474    98.000
   818.697    98.500
   820.920    99.000
   823.143    99.500
END
gmt psxy -: -R $projection -Wthick,red -K -O << END >> $psfile
   419.740    28.500
   425.297    29.000
   430.854    29.500
   436.410    30.000
   441.965    30.500
   447.519    31.000
   453.071    31.500
   458.621    32.000
   464.168    32.500
   469.712    33.000
   475.254    33.500
   480.791    34.000
   486.325    34.500
   491.853    35.000
   497.377    35.500
   502.895    36.000
   508.408    36.500
   513.913    37.000
   519.411    37.500
   524.902    38.000
   530.384    38.500
   535.858    39.000
   541.322    39.500
   546.776    40.000
   552.220    40.500
   557.652    41.000
   563.073    41.500
   568.481    42.000
   573.877    42.500
   579.259    43.000
   584.627    43.500
   589.981    44.000
   595.320    44.500
   600.644    45.000
   605.953    45.500
   611.244    46.000
   616.520    46.500
   621.778    47.000
   626.531    47.500
   631.102    48.000
   635.668    48.500
   640.229    49.000
   644.786    49.500
   649.337    50.000
   653.884    50.500
   658.425    51.000
   662.960    51.500
   667.490    52.000
   672.015    52.500
   676.533    53.000
   681.045    53.500
   685.550    54.000
   690.048    54.500
   694.536    55.000
   699.015    55.500
   703.482    56.000
   707.942    56.500
   712.396    57.000
   716.844    57.500
   721.288    58.000
   725.727    58.500
   730.161    59.000
   734.592    59.500
   739.019    60.000
   743.442    60.500
   747.861    61.000
   752.277    61.500
   756.688    62.000
   761.096    62.500
   765.500    63.000
   769.900    63.500
   774.295    64.000
   778.686    64.500
   783.072    65.000
   787.452    65.500
   791.827    66.000
   796.196    66.500
   800.557    67.000
   804.912    67.500
   809.260    68.000
   813.600    68.500
   817.932    69.000
   822.257    69.500
   826.575    70.000
   830.885    70.500
   835.187    71.000
   839.482    71.500
   843.769    72.000
   848.048    72.500
   852.320    73.000
   856.585    73.500
   860.841    74.000
   865.090    74.500
   869.330    75.000
   873.563    75.500
   877.788    76.000
   882.005    76.500
   886.213    77.000
   890.413    77.500
   894.605    78.000
   898.789    78.500
   902.964    79.000
   907.130    79.500
   911.288    80.000
   915.437    80.500
   919.578    81.000
   923.710    81.500
   927.834    82.000
   931.949    82.500
   936.056    83.000
   940.154    83.500
   944.244    84.000
   948.325    84.500
   952.397    85.000
   956.461    85.500
   960.516    86.000
   964.562    86.500
   968.599    87.000
   972.627    87.500
   976.647    88.000
   980.657    88.500
   984.659    89.000
   988.652    89.500
   992.636    90.000
   996.611    90.500
  1000.577    91.000
  1004.534    91.500
  1008.481    92.000
  1012.420    92.500
  1016.350    93.000
  1020.271    93.500
  1024.183    94.000
  1028.086    94.500
  1031.979    95.000
  1035.864    95.500
  1039.740    96.000
  1043.606    96.500
  1047.464    97.000
  1051.312    97.500
  1055.151    98.000
  1058.981    98.500
  1062.802    99.000
  1066.614    99.500
  1070.417   100.000
  1074.211   100.500
  1077.995   101.000
  1081.770   101.500
  1085.536   102.000
  1089.293   102.500
  1093.041   103.000
  1096.780   103.500
  1100.510   104.000
  1104.231   104.500
  1107.943   105.000
  1111.646   105.500
  1115.340   106.000
  1119.026   106.500
  1122.702   107.000
  1126.369   107.500
  1130.028   108.000
  1133.677   108.500
  1137.317   109.000
  1140.947   109.500
  1144.569   110.000
  1148.181   110.500
  1151.784   111.000
  1155.377   111.500
  1158.962   112.000
  1162.537   112.500
  1166.103   113.000
  1169.659   113.500
  1173.207   114.000
  1176.746   114.500
  1180.275   115.000
  1183.796   115.500
  1187.307   116.000
  1190.810   116.500
  1194.303   117.000
  1197.787   117.500
  1201.263   118.000
  1204.729   118.500
  1208.185   119.000
  1211.633   119.500
  1215.072   120.000
  1218.501   120.500
  1221.921   121.000
  1225.332   121.500
  1228.733   122.000
  1232.126   122.500
  1235.509   123.000
  1238.883   123.500
  1242.248   124.000
  1245.604   124.500
  1248.951   125.000
  1252.289   125.500
  1255.618   126.000
  1258.938   126.500
  1262.250   127.000
  1265.552   127.500
  1268.845   128.000
  1272.130   128.500
  1275.405   129.000
  1278.671   129.500
  1281.929   130.000
  1285.177   130.500
  1288.417   131.000
  1291.647   131.500
  1294.869   132.000
  1298.081   132.500
  1301.285   133.000
  1304.479   133.500
  1307.664   134.000
  1310.840   134.500
  1314.007   135.000
  1317.166   135.500
  1320.315   136.000
  1323.454   136.500
  1326.585   137.000
  1329.707   137.500
  1332.820   138.000
  1335.923   138.500
  1339.018   139.000
  1342.103   139.500
  1345.179   140.000
  1348.247   140.500
  1351.305   141.000
  1354.354   141.500
  1357.394   142.000
  1360.425   142.500
  1363.447   143.000
  1366.460   143.500
  1369.464   144.000
  1372.458   144.500
  1375.444   145.000
  1378.420   145.500
  1381.387   146.000
  1384.345   146.500
  1387.294   147.000
  1390.233   147.500
  1393.163   148.000
  1396.083   148.500
  1398.994   149.000
  1401.896   149.500
  1404.788   150.000
END
gmt psxy -: -R $projection -Wthick,red -K -O << END >> $psfile
   825.366   100.000
   827.588   100.500
   829.811   101.000
   832.034   101.500
   834.257   102.000
   836.480   102.500
   838.703   103.000
   840.925   103.500
   843.148   104.000
   845.371   104.500
   847.594   105.000
   849.817   105.500
   852.040   106.000
   854.262   106.500
   856.485   107.000
   858.708   107.500
   860.931   108.000
   863.154   108.500
   865.377   109.000
   867.599   109.500
   869.822   110.000
   872.045   110.500
   874.268   111.000
   876.491   111.500
   878.714   112.000
   880.936   112.500
   883.159   113.000
   885.382   113.500
   887.605   114.000
   889.828   114.500
   892.051   115.000
   894.273   115.500
   896.496   116.000
   898.719   116.500
   900.942   117.000
   903.165   117.500
   905.388   118.000
   907.610   118.500
   909.833   119.000
   912.056   119.500
   914.279   120.000
   916.502   120.500
   918.725   121.000
   920.947   121.500
   923.170   122.000
   925.393   122.500
   927.616   123.000
   929.839   123.500
   932.062   124.000
   934.284   124.500
   936.507   125.000
   938.730   125.500
   940.953   126.000
   943.176   126.500
   945.399   127.000
   947.622   127.500
   949.844   128.000
   952.067   128.500
   954.290   129.000
   956.513   129.500
   958.736   130.000
   960.958   130.500
   963.181   131.000
   965.404   131.500
   967.627   132.000
   969.850   132.500
   972.073   133.000
   974.295   133.500
   976.518   134.000
   978.741   134.500
   980.964   135.000
   983.187   135.500
   985.410   136.000
   987.633   136.500
   989.855   137.000
   992.078   137.500
   994.301   138.000
   996.524   138.500
   998.747   139.000
  1000.970   139.500
  1003.192   140.000
  1005.415   140.500
  1007.638   141.000
  1009.861   141.500
  1012.084   142.000
  1014.307   142.500
  1016.529   143.000
  1018.752   143.500
  1020.975   144.000
  1023.198   144.500
END
gmt psxy -: -R $projection -Wthick,green -K -O << END >> $psfile
   385.728    14.500
   395.967    15.000
   406.201    15.500
   416.429    16.000
   426.647    16.500
   436.850    17.000
   447.036    17.500
   457.198    18.000
   467.332    18.500
   477.433    19.000
   487.494    19.500
   497.510    20.000
   507.474    20.500
   517.381    21.000
   527.225    21.500
   537.001    22.000
   546.704    22.500
   555.394    23.000
   563.537    23.500
   571.647    24.000
   579.723    24.500
   587.756    25.000
   595.711    25.500
   603.622    26.000
   611.523    26.500
   619.414    27.000
   627.298    27.500
   635.175    28.000
   643.046    28.500
   650.910    29.000
   658.767    29.500
   666.617    30.000
   674.459    30.500
   682.291    31.000
   690.112    31.500
   697.920    32.000
   705.714    32.500
   713.493    33.000
   721.254    33.500
   728.998    34.000
   736.724    34.500
   744.430    35.000
   752.117    35.500
   759.785    36.000
   767.432    36.500
   775.059    37.000
   782.665    37.500
   790.251    38.000
   797.814    38.500
   805.356    39.000
   812.875    39.500
   820.371    40.000
   827.844    40.500
   835.294    41.000
   842.720    41.500
   850.122    42.000
   857.500    42.500
   864.854    43.000
   872.183    43.500
   879.488    44.000
   886.767    44.500
   894.021    45.000
   901.250    45.500
   908.454    46.000
   915.632    46.500
   922.783    47.000
   929.908    47.500
   937.007    48.000
   944.078    48.500
   951.123    49.000
   958.141    49.500
   965.131    50.000
   972.095    50.500
   979.031    51.000
   985.940    51.500
   992.821    52.000
   999.675    52.500
  1006.501    53.000
  1013.302    53.500
  1020.076    54.000
  1026.824    54.500
  1033.546    55.000
  1040.240    55.500
  1046.907    56.000
  1053.547    56.500
  1060.158    57.000
  1066.741    57.500
  1073.296    58.000
  1079.823    58.500
  1086.322    59.000
  1092.794    59.500
  1099.239    60.000
  1105.655    60.500
  1112.044    61.000
  1118.404    61.500
  1124.737    62.000
  1131.041    62.500
  1137.316    63.000
  1143.563    63.500
  1149.781    64.000
  1155.972    64.500
  1162.134    65.000
  1168.267    65.500
  1174.373    66.000
  1180.450    66.500
  1186.499    67.000
  1192.519    67.500
  1198.511    68.000
  1204.474    68.500
  1210.408    69.000
  1216.314    69.500
  1222.191    70.000
  1228.040    70.500
  1233.859    71.000
  1239.650    71.500
  1245.412    72.000
  1251.144    72.500
  1256.846    73.000
  1262.519    73.500
  1268.161    74.000
  1273.773    74.500
  1279.356    75.000
  1284.909    75.500
  1290.433    76.000
  1295.928    76.500
  1301.393    77.000
  1306.828    77.500
  1312.232    78.000
  1317.606    78.500
  1322.950    79.000
  1328.265    79.500
  1333.551    80.000
  1338.807    80.500
  1344.033    81.000
  1349.228    81.500
  1354.391    82.000
  1359.522    82.500
  1364.621    83.000
  1369.688    83.500
  1374.725    84.000
  1379.731    84.500
  1384.705    85.000
  1389.649    85.500
  1394.560    86.000
  1399.439    86.500
  1404.287    87.000
  1409.101    87.500
  1413.883    88.000
  1418.632    88.500
  1423.347    89.000
  1428.029    89.500
  1432.677    90.000
  1437.292    90.500
  1441.872    91.000
  1446.419    91.500
  1450.932    92.000
  1455.411    92.500
  1459.857    93.000
  1464.268    93.500
  1468.653    94.000
  1473.021    94.500
  1477.376    95.000
  1481.719    95.500
  1486.051    96.000
  1490.370    96.500
  1494.672    97.000
  1498.954    97.500
  1503.216    98.000
  1507.458    98.500
  1511.681    99.000
  1515.884    99.500
  1520.065   100.000
END
gmt psxy -: -R $projection -Wthick,green -K -O << END >> $psfile
   720.862     0.500
   720.909     1.000
   720.987     1.500
   721.096     2.000
   721.236     2.500
   721.407     3.000
   721.609     3.500
   721.842     4.000
   722.106     4.500
   722.401     5.000
   722.726     5.500
   723.082     6.000
   723.469     6.500
   723.887     7.000
   724.334     7.500
   724.812     8.000
   725.320     8.500
   725.859     9.000
   726.427     9.500
   727.025    10.000
   727.652    10.500
   728.309    11.000
   728.996    11.500
   729.711    12.000
   730.456    12.500
   731.229    13.000
   732.031    13.500
   732.862    14.000
   733.720    14.500
   734.607    15.000
   735.522    15.500
   736.464    16.000
   737.434    16.500
   738.431    17.000
   739.455    17.500
   740.505    18.000
   741.583    18.500
   742.686    19.000
   743.815    19.500
   744.971    20.000
   746.151    20.500
   747.357    21.000
   748.588    21.500
   749.844    22.000
   751.124    22.500
   752.428    23.000
   753.756    23.500
   755.108    24.000
   756.483    24.500
   757.881    25.000
   759.302    25.500
   760.745    26.000
   762.210    26.500
   763.697    27.000
   765.206    27.500
   766.736    28.000
   768.286    28.500
   769.857    29.000
   771.449    29.500
   773.061    30.000
   774.692    30.500
   776.342    31.000
   778.011    31.500
   779.699    32.000
   781.406    32.500
   783.130    33.000
   784.872    33.500
   786.632    34.000
   788.408    34.500
   790.201    35.000
   792.011    35.500
   793.836    36.000
   795.677    36.500
   797.534    37.000
   799.405    37.500
   801.291    38.000
   803.192    38.500
   805.106    39.000
   807.034    39.500
   808.976    40.000
   810.930    40.500
   812.897    41.000
   814.877    41.500
   816.868    42.000
   818.871    42.500
   820.885    43.000
   822.911    43.500
   824.947    44.000
   826.993    44.500
   829.050    45.000
   831.116    45.500
   833.191    46.000
   835.276    46.500
   837.369    47.000
   839.470    47.500
   841.580    48.000
   843.698    48.500
   845.822    49.000
   847.955    49.500
   850.093    50.000
   852.239    50.500
   854.391    51.000
   856.548    51.500
   858.711    52.000
   860.880    52.500
   863.054    53.000
   865.232    53.500
   867.415    54.000
   869.603    54.500
   871.794    55.000
   873.989    55.500
   876.187    56.000
   878.389    56.500
   880.594    57.000
   882.801    57.500
   885.011    58.000
   887.223    58.500
   889.437    59.000
   891.653    59.500
   893.870    60.000
   896.089    60.500
   898.309    61.000
   900.530    61.500
   902.752    62.000
   904.974    62.500
   907.196    63.000
   909.419    63.500
END
gmt psxy -: -R $projection -Wthick,green -K -O << END >> $psfile
   932.916     0.500
   932.983     1.000
   933.094     1.500
   933.249     2.000
   933.448     2.500
   933.691     3.000
   933.979     3.500
   934.310     4.000
   934.686     4.500
   935.105     5.000
   935.569     5.500
   936.076     6.000
   936.627     6.500
   937.222     7.000
   937.860     7.500
   938.541     8.000
   939.265     8.500
   940.033     9.000
   940.844     9.500
   941.697    10.000
   942.593    10.500
   943.531    11.000
   944.512    11.500
   945.535    12.000
   946.600    12.500
   947.707    13.000
   948.855    13.500
   950.044    14.000
   951.275    14.500
   952.546    15.000
   953.859    15.500
   955.211    16.000
   956.604    16.500
   958.037    17.000
   959.509    17.500
   961.021    18.000
   962.573    18.500
   964.163    19.000
   965.792    19.500
   967.459    20.000
   969.164    20.500
   970.908    21.000
   972.689    21.500
   974.507    22.000
   976.362    22.500
   978.254    23.000
   980.182    23.500
   982.146    24.000
   984.146    24.500
   986.182    25.000
   988.253    25.500
   990.358    26.000
   992.498    26.500
   994.673    27.000
   996.881    27.500
   999.123    28.000
  1001.398    28.500
  1003.706    29.000
  1006.047    29.500
  1008.420    30.000
  1010.825    30.500
  1013.261    31.000
  1015.729    31.500
  1018.227    32.000
  1020.756    32.500
  1023.316    33.000
  1025.905    33.500
  1028.524    34.000
  1031.172    34.500
  1033.850    35.000
  1036.555    35.500
  1039.289    36.000
  1042.051    36.500
  1044.841    37.000
  1047.657    37.500
  1050.501    38.000
  1053.371    38.500
  1056.267    39.000
  1059.189    39.500
  1062.137    40.000
  1065.110    40.500
  1068.108    41.000
  1071.130    41.500
  1074.177    42.000
  1077.247    42.500
  1080.342    43.000
  1083.459    43.500
  1086.599    44.000
  1089.762    44.500
  1092.947    45.000
  1096.154    45.500
  1099.383    46.000
  1102.633    46.500
  1105.905    47.000
  1109.196    47.500
  1112.509    48.000
  1115.841    48.500
  1119.193    49.000
  1122.565    49.500
  1125.956    50.000
  1129.365    50.500
  1132.794    51.000
  1136.240    51.500
  1139.705    52.000
  1143.187    52.500
  1146.687    53.000
  1150.203    53.500
  1153.737    54.000
  1157.287    54.500
  1160.854    55.000
  1164.436    55.500
  1168.035    56.000
  1171.648    56.500
  1175.277    57.000
  1178.921    57.500
  1182.579    58.000
  1186.252    58.500
  1189.939    59.000
  1193.640    59.500
  1197.354    60.000
  1201.082    60.500
  1204.822    61.000
  1208.576    61.500
  1212.342    62.000
  1216.121    62.500
  1219.912    63.000
  1223.714    63.500
  1227.529    64.000
  1231.354    64.500
  1235.191    65.000
  1239.039    65.500
  1242.897    66.000
  1246.766    66.500
  1250.646    67.000
  1254.535    67.500
  1258.434    68.000
  1262.343    68.500
  1266.261    69.000
  1270.188    69.500
  1274.124    70.000
  1278.069    70.500
  1282.023    71.000
  1285.985    71.500
  1289.955    72.000
  1293.933    72.500
  1297.919    73.000
  1301.912    73.500
  1305.913    74.000
  1309.921    74.500
  1313.936    75.000
  1317.958    75.500
  1321.986    76.000
  1326.021    76.500
  1330.062    77.000
  1334.109    77.500
  1338.162    78.000
  1342.221    78.500
  1346.286    79.000
  1350.355    79.500
  1354.431    80.000
  1358.511    80.500
  1362.596    81.000
  1366.686    81.500
  1370.780    82.000
  1374.879    82.500
  1378.982    83.000
  1383.090    83.500
  1387.201    84.000
  1391.316    84.500
  1395.435    85.000
  1399.557    85.500
  1403.683    86.000
  1407.812    86.500
  1411.945    87.000
  1416.080    87.500
  1420.218    88.000
  1424.359    88.500
  1428.502    89.000
  1432.648    89.500
  1436.796    90.000
  1440.947    90.500
  1445.099    91.000
  1449.253    91.500
  1453.409    92.000
  1457.567    92.500
  1461.727    93.000
  1465.888    93.500
  1470.050    94.000
  1474.214    94.500
  1478.379    95.000
  1482.544    95.500
  1486.711    96.000
  1490.879    96.500
  1495.047    97.000
  1499.216    97.500
  1503.385    98.000
  1507.555    98.500
  1511.725    99.000
  1515.895    99.500
  1520.065   100.000
END
gmt psxy -: -R $projection -Wthick,green -K -O << END >> $psfile
   773.682    29.000
   783.921    29.500
   794.160    30.000
   804.396    30.500
   814.630    31.000
   824.861    31.500
   835.087    32.000
   845.309    32.500
   855.524    33.000
   865.733    33.500
   875.934    34.000
   886.126    34.500
   896.307    35.000
   906.478    35.500
   916.636    36.000
   926.780    36.500
   936.909    37.000
   947.021    37.500
   957.115    38.000
   966.827    38.500
   977.244    39.000
   987.275    39.500
   997.282    40.000
  1007.263    40.500
  1017.218    41.000
  1027.144    41.500
  1037.040    42.000
  1046.905    42.500
  1056.737    43.000
  1066.535    43.500
  1076.298    44.000
  1086.025    44.500
  1095.715    45.000
  1105.106    45.500
  1113.276    46.000
  1121.429    46.500
  1129.566    47.000
  1137.686    47.500
  1145.789    48.000
  1153.876    48.500
  1161.946    49.000
  1169.995    49.500
  1178.018    50.000
  1186.005    50.500
  1193.935    51.000
  1201.852    51.500
  1209.760    52.000
  1217.664    52.500
  1225.562    53.000
  1233.456    53.500
  1241.346    54.000
  1249.232    54.500
  1257.114    55.000
  1264.994    55.500
  1272.869    56.000
  1280.742    56.500
  1288.611    57.000
  1296.477    57.500
  1304.339    58.000
  1312.199    58.500
  1320.055    59.000
  1327.907    59.500
  1335.755    60.000
  1343.600    60.500
  1351.440    61.000
  1359.275    61.500
  1367.105    62.000
  1374.930    62.500
  1382.748    63.000
  1390.560    63.500
  1398.366    64.000
  1406.164    64.500
  1413.956    65.000
  1421.739    65.500
  1429.514    66.000
  1437.281    66.500
  1445.039    67.000
  1452.789    67.500
  1460.529    68.000
  1468.260    68.500
  1475.982    69.000
  1483.695    69.500
  1491.397    70.000
END
gmt psxy -: -R $projection -Sx -Wthin,cyan -K -O << END >> $psfile
   765.313    75.681     0.150
   707.113    78.243     0.150
   705.312    78.582     0.150
  1182.313   158.093     0.150
  1186.313   158.093     0.150
   217.789    10.196     0.150
   216.789    10.248     0.150
   217.789    10.243     0.150
   219.789    10.341     0.150
   220.789    10.428     0.150
   247.945    10.173     0.150
   245.945    10.226     0.150
   247.945    10.222     0.150
   248.945    10.319     0.150
   251.945    10.405     0.150
END
gmt psxy -: -R $projection -Sx -Wthin,black -K -O << END >> $psfile
   107.879     7.585     0.150
   142.778    10.140     0.150
   143.879    10.192     0.150
   537.979    50.225     0.150
   539.879    50.506     0.150
   540.479    50.637     0.150
   544.179    50.995     0.150
   543.979    51.018     0.150
   544.778    51.191     0.150
   551.278    52.064     0.150
   559.479    53.282     0.150
   624.979    53.282     0.150
   567.278    54.281     0.150
   575.778    55.429     0.150
   590.778    57.575     0.150
   591.979    57.736     0.150
   643.979    57.736     0.150
   601.479    59.059     0.150
   600.179    59.020     0.150
   603.679    59.409     0.150
   616.979    61.402     0.150
   619.979    61.795     0.150
   620.679    62.018     0.150
   625.179    62.904     0.150
   638.379    64.432     0.150
   638.379    64.629     0.150
   652.979    64.629     0.150
   645.979    65.993     0.150
   653.979    67.259     0.150
   663.679    68.769     0.150
   665.479    69.013     0.150
   675.778    70.709     0.150
   683.278    72.089     0.150
   684.278    72.166     0.150
   684.479    72.226     0.150
   694.979    73.894     0.150
   694.879    73.897     0.150
   703.979    75.376     0.150
   721.578    78.280     0.150
   721.778    78.618     0.150
   734.979    81.418     0.150
   743.679    82.664     0.150
   754.979    85.200     0.150
  1163.179   136.272     0.150
  1176.479   146.104     0.150
  1189.979   152.481     0.150
   107.813     7.600     0.150
   143.312    10.163     0.150
   144.512    10.216     0.150
   143.914    10.217     0.150
   539.313    50.469     0.150
   543.313    50.982     0.150
   544.313    51.186     0.150
   549.313    51.759     0.150
   550.914    52.028     0.150
   565.313    52.028     0.150
   566.613    54.239     0.150
   575.512    55.391     0.150
   590.914    57.536     0.150
   591.711    57.694     0.150
   600.012    58.985     0.150
   603.512    59.369     0.150
   618.313    61.817     0.150
   627.813    63.134     0.150
   638.312    64.478     0.150
   646.312    65.957     0.150
   649.313    66.668     0.150
   654.312    67.226     0.150
   662.113    68.504     0.150
   663.312    68.751     0.150
   665.313    68.994     0.150
   675.812    70.689     0.150
   682.414    71.895     0.150
   683.312    72.070     0.150
   683.812    72.147     0.150
   684.512    72.207     0.150
   706.313    75.681     0.150
   727.313    79.589     0.150
   735.313    81.385     0.150
   743.711    82.683     0.150
   755.312    85.176     0.150
  1193.312   150.516     0.150
  1192.313   150.435     0.150
  1205.313   151.798     0.150
  1190.313   152.495     0.150
  1195.313   152.495     0.150
   108.189     7.642     0.150
   186.789     7.642     0.150
   108.389     7.639     0.150
   186.789     7.639     0.150
   111.389     7.869     0.150
   191.789     7.869     0.150
   111.789     7.891     0.150
   192.789     7.891     0.150
   143.689    10.196     0.150
   144.590    10.248     0.150
   144.590    10.243     0.150
   145.488    10.341     0.150
   146.488    10.428     0.150
   544.789    51.180     0.150
   550.789    52.018     0.150
   575.389    55.384     0.150
   589.988    57.531     0.150
   591.789    57.698     0.150
   643.789    57.698     0.150
   600.189    58.972     0.150
   603.488    59.366     0.150
   611.289    59.366     0.150
   619.789    61.802     0.150
   638.090    64.442     0.150
   642.289    65.443     0.150
   649.590    65.443     0.150
   643.988    65.509     0.150
   645.789    65.945     0.150
   653.789    67.210     0.150
   660.889    68.463     0.150
   663.090    68.712     0.150
   665.789    69.164     0.150
   683.789    72.032     0.150
   682.789    72.109     0.150
   690.988    73.188     0.150
   690.988    73.309     0.150
   696.789    74.314     0.150
   706.789    75.645     0.150
   707.488    75.907     0.150
   721.389    78.303     0.150
   721.789    78.642     0.150
   721.789    78.825     0.150
   737.889    81.228     0.150
   735.789    81.367     0.150
   755.289    85.144     0.150
  1183.789   147.159     0.150
  1191.988   150.537     0.150
  1194.789   151.836     0.150
  1196.789   152.539     0.150
  1221.789   155.892     0.150
   107.844     7.614     0.150
   107.645     7.612     0.150
   110.645     7.840     0.150
   111.145     7.863     0.150
   142.945    10.173     0.150
   144.047    10.226     0.150
   144.145    10.222     0.150
   144.945    10.319     0.150
   145.746    10.405     0.150
   545.945    51.188     0.150
   550.945    52.028     0.150
   575.746    55.392     0.150
   580.945    55.392     0.150
   600.047    58.984     0.150
   603.344    59.372     0.150
   611.047    59.372     0.150
   618.945    61.815     0.150
   638.844    64.460     0.150
   645.945    65.956     0.150
   661.945    68.490     0.150
   662.047    68.738     0.150
   667.246    69.270     0.150
   682.746    72.058     0.150
   690.746    72.058     0.150
   683.445    72.134     0.150
   691.445    73.216     0.150
   691.047    73.336     0.150
   696.945    74.331     0.150
   706.445    75.663     0.150
   707.945    75.923     0.150
   734.945    81.382     0.150
   744.547    82.695     0.150
   754.945    85.167     0.150
  1162.945   136.265     0.150
  1183.945   147.184     0.150
  1192.344   150.528     0.150
  1195.945   151.810     0.150
  1196.945   152.510     0.150
  1221.945   155.864     0.150
  1221.945   156.021     0.150
END
gmt pstext -: -R $projection -F+f10p,Helvetica,red+a0.+jBL -K -O << END >> $psfile
   140.000    60.000 P phases in red
END
gmt pstext -: -R $projection -F+f10p,Helvetica,green+a0.+jBL -K -O << END >> $psfile
   100.000    60.000 S phases in green
END
gmt pstext -: -R $projection -F+f10p,Helvetica,black+a0.+jBL -K -O << END >> $psfile
    60.000    60.000 Readings used for cluster vectors in black
END
gmt pstext -: -R $projection -F+f10p,Helvetica,cyan+a0.+jBL -O << END >> $psfile
    20.000    60.000 Readings not used for cluster vectors in cyan
END
